 $SEQPAR
 SEQ='MEGA'
 $END

 $NMID ID='subj01c0.RAW', FMTDAT='(8E13.5)'
 TRAMP=1.0000 , VOLUME=1.0000  $END
  2.91795E+01 -2.29746E-01  2.70166E+01  6.20489E+00  2.45058E+01  1.22766E+01  2.00511E+01  1.72293E+01
  1.54944E+01  1.99538E+01  1.00620E+01  2.04971E+01  4.87139E+00  2.10540E+01  4.26913E-01  2.00794E+01
 -3.23565E+00  1.77583E+01 -4.83335E+00  1.51852E+01 -7.44178E+00  1.20925E+01 -7.65537E+00  9.60154E+00
 -8.53060E+00  6.72719E+00 -8.56243E+00  4.31163E+00 -7.15048E+00  2.20530E+00 -5.57996E+00  1.65699E-01
 -2.96722E+00 -1.04551E+00 -2.20266E+00 -7.49486E-01  6.12063E-02  9.10328E-01  7.27687E-01  2.34161E+00
  8.17704E-01  3.67954E+00 -3.90876E-01  6.54958E+00 -1.65764E+00  7.67373E+00 -4.50916E+00  8.43563E+00
 -7.35455E+00  8.05216E+00 -9.41491E+00  5.92890E+00 -1.04571E+01  2.94072E+00 -1.21705E+01  6.91154E-01
 -1.18639E+01 -3.12144E+00 -1.02738E+01 -6.13520E+00 -7.74766E+00 -7.77427E+00 -5.44181E+00 -9.04466E+00
 -2.47918E+00 -9.09063E+00 -5.06023E-01 -8.55191E+00  1.77163E+00 -8.34568E+00  3.63849E+00 -6.28319E+00
  5.29402E+00 -5.12789E+00  5.56777E+00 -3.64747E+00  6.03438E+00 -1.20890E+00  4.95486E+00  1.13816E+00
  3.76215E+00  3.36878E+00  3.01318E+00  4.71653E+00  3.69428E-02  5.72754E+00 -2.26718E+00  6.36485E+00
 -5.40546E+00  4.84431E+00 -7.75825E+00  4.11976E+00 -9.44341E+00  7.32721E-01 -9.75609E+00 -2.05055E+00
 -9.03659E+00 -5.58484E+00 -6.89394E+00 -9.14818E+00 -3.80735E+00 -1.09118E+01 -8.62585E-01 -1.14220E+01
  1.79889E+00 -1.15362E+01  4.26494E+00 -9.17225E+00  5.83508E+00 -8.13613E+00  7.31982E+00 -5.56981E+00
  8.36904E+00 -3.59126E+00  8.43462E+00 -1.72619E+00  8.25718E+00 -3.53612E-01  7.22956E+00  1.76277E+00
  6.14724E+00  3.24832E+00  5.90818E+00  4.50739E+00  4.13536E+00  4.09588E+00  2.45264E+00  6.25401E+00
  1.17940E+00  5.01455E+00 -2.54879E-01  4.58680E+00 -2.20743E+00  3.77838E+00 -2.25799E+00  1.44943E+00
 -2.01160E+00 -2.35403E-01 -1.60517E+00 -2.64449E-01 -1.21202E-01 -8.36850E-01  2.12617E+00 -5.01146E-01
  2.45771E+00  1.84523E-01  2.96561E+00  1.20345E+00  3.12457E+00  3.25384E+00  1.74848E+00  4.63250E+00
  7.24349E-01  5.30724E+00 -2.36908E+00  4.90671E+00 -3.35051E+00  4.34609E+00 -5.39539E+00  3.11689E+00
 -5.91889E+00  2.32170E+00 -6.71704E+00 -6.29108E-02 -5.35946E+00 -2.13692E+00 -4.59567E+00 -3.14511E+00
 -3.84163E+00 -3.98201E+00 -2.10617E+00 -4.74548E+00 -1.29053E+00 -6.17604E+00  1.30565E+00 -6.86169E+00
  1.95235E+00 -5.63824E+00  3.61095E+00 -4.87633E+00  5.09795E+00 -4.16148E+00  6.23217E+00 -2.19384E+00
  7.77018E+00  6.34693E-01  6.54120E+00  1.95836E+00  6.43888E+00  4.76333E+00  5.03058E+00  6.64960E+00
  1.63449E+00  8.10421E+00  1.43819E-01  8.50301E+00 -2.87358E+00  7.92811E+00 -5.02282E+00  6.97114E+00
 -6.52460E+00  4.53899E+00 -6.76595E+00  2.85711E+00 -6.39140E+00 -5.70608E-01 -5.70707E+00 -1.79704E+00
 -4.97239E+00 -2.85096E+00 -3.18452E+00 -3.67378E+00 -1.97747E+00 -3.88149E+00 -8.15600E-01 -3.04001E+00
  1.21706E-01 -3.31325E+00  5.25185E-01 -2.75105E+00  1.65842E+00 -2.02691E+00  8.51507E-01 -1.18816E+00
  1.99368E+00  1.00534E-01  1.85370E+00  1.00898E+00  4.01221E-01  1.77454E+00 -1.00685E+00  2.35580E+00
 -1.39339E+00  2.90631E+00 -3.74459E+00  2.03712E+00 -5.34042E+00  1.01994E+00 -5.54897E+00 -5.88368E-01
 -5.25264E+00 -3.03837E+00 -4.78051E+00 -5.49295E+00 -3.33128E+00 -7.13300E+00 -1.00362E+00 -7.88913E+00
  2.02042E+00 -7.57654E+00  3.22179E+00 -7.29874E+00  5.62385E+00 -5.66465E+00  6.03218E+00 -3.51232E+00
  7.14429E+00 -2.04334E+00  6.72191E+00 -5.65206E-03  5.50392E+00  1.74792E+00  4.72245E+00  3.83780E+00
  3.68368E+00  4.73785E+00  2.09770E+00  5.25401E+00  6.88771E-01  4.61778E+00 -1.74027E-01  3.60333E+00
 -2.26844E+00  3.93978E+00 -3.13488E+00  2.77525E+00 -3.74665E+00  1.62891E+00 -5.12663E+00 -3.48417E-01
 -4.16136E+00 -2.65980E+00 -2.76046E+00 -3.92521E+00 -1.43566E+00 -6.12986E+00  1.38369E+00 -6.29418E+00
  4.13080E+00 -5.84866E+00  6.54982E+00 -4.64918E+00  8.11206E+00 -2.40950E+00  8.15264E+00  2.22894E-01
  8.50016E+00  2.83358E+00  7.40337E+00  5.14603E+00  5.18328E+00  7.38867E+00  3.19484E+00  8.02688E+00
  6.27349E-01  8.87721E+00 -1.42033E+00  8.60564E+00 -3.47556E+00  7.16364E+00 -3.92642E+00  5.89638E+00
 -6.36574E+00  5.08433E+00 -6.88409E+00  2.50069E+00 -6.79611E+00  2.44812E+00 -7.51142E+00  4.71890E-01
 -6.83014E+00 -2.32250E+00 -6.21734E+00 -3.98012E+00 -4.70389E+00 -4.96184E+00 -3.08140E+00 -5.29774E+00
 -4.07184E-01 -5.57301E+00  1.47647E+00 -4.93970E+00  2.64986E+00 -4.08458E+00  3.55230E+00 -1.84932E+00
  3.66654E+00 -1.00166E+00  2.51725E+00  7.64046E-01  1.82579E+00  1.77312E+00  7.53547E-01  2.38801E+00
 -1.85981E+00  1.41607E+00 -1.73541E+00  8.68412E-01 -1.97573E+00  4.48149E-02 -2.08096E+00 -1.58730E+00
 -2.95554E+00 -1.85165E+00 -8.39373E-01 -2.96790E+00 -1.99587E-01 -2.94071E+00  8.91313E-01 -2.46628E+00
  1.38001E+00 -2.56888E+00  2.74128E+00 -2.85437E+00  3.44619E+00 -2.21528E+00  3.66736E+00 -3.57593E-01
  3.31950E+00 -1.08589E-01  4.10654E+00  4.64757E-01  3.70220E+00  2.19518E+00  3.44584E+00  3.26149E+00
  2.24376E+00  4.85858E+00  1.26559E+00  4.91092E+00 -4.57342E-01  5.18280E+00 -3.40946E+00  5.23281E+00
 -4.88804E+00  4.05550E+00 -5.13735E+00  1.74623E+00 -5.97712E+00 -2.70935E-01 -5.20086E+00 -2.10221E+00
 -3.96437E+00 -3.82814E+00 -2.90287E+00 -4.62276E+00 -8.58162E-01 -5.67875E+00  8.78735E-01 -5.90283E+00
  2.15850E+00 -5.31174E+00  3.59571E+00 -3.04886E+00  3.87087E+00 -2.71295E+00  5.12464E+00 -2.38232E+00
  4.66419E+00 -1.25562E+00  5.19841E+00  2.65437E-02  4.62688E+00  1.27431E+00  4.82879E+00  2.24149E+00
  4.38193E+00  2.78508E+00  3.08512E+00  3.84418E+00  1.78894E+00  5.01791E+00 -1.64923E-02  4.20987E+00
  1.29003E-03  4.50314E+00 -1.31110E+00  3.46948E+00 -2.14119E+00  2.88600E+00 -3.15589E+00  1.51667E+00
 -1.44673E+00  1.43105E+00 -1.27333E+00  5.25602E-01 -3.56418E-01  1.10186E+00  1.78776E-01  5.61708E-01
  2.86383E-01  1.52473E+00  3.07098E-01  2.30279E+00 -7.44628E-01  2.76465E+00 -2.12155E+00  3.03204E+00
 -3.47954E+00  2.88697E+00 -4.95380E+00  1.19056E+00 -5.13323E+00  1.78893E+00 -5.00730E+00  2.28327E-01
 -5.21474E+00 -4.19686E-01 -4.67540E+00 -1.79089E+00 -4.61210E+00 -2.60804E+00 -3.66824E+00 -3.36403E+00
 -2.73926E+00 -3.89473E+00 -1.95150E+00 -4.67993E+00 -9.83196E-01 -5.47904E+00 -4.31868E-02 -5.21852E+00
  2.29188E+00 -5.31186E+00  2.49551E+00 -4.44479E+00  4.23426E+00 -3.02083E+00  5.88674E+00 -2.19885E+00
  5.54074E+00 -3.88811E-02  5.50678E+00  1.40487E+00  3.74117E+00  3.33050E+00  2.29927E+00  3.96020E+00
  4.44631E-01  5.16538E+00 -1.66212E+00  3.96429E+00 -1.81213E+00  3.79793E+00 -3.79786E+00  2.42211E+00
 -3.76911E+00  3.16863E-01 -3.22608E+00 -9.22365E-01 -3.31179E+00 -1.84529E+00 -2.92246E+00 -2.27606E+00
 -2.47781E+00 -3.34395E+00 -1.56423E+00 -3.16249E+00 -9.63912E-01 -3.87886E+00  3.55003E-01 -3.94799E+00
  2.19541E-01 -3.67404E+00  2.00728E+00 -3.87512E+00  2.54100E+00 -3.28492E+00  3.10778E+00 -2.51139E+00
  3.12616E+00 -1.17643E+00  3.99470E+00 -1.00034E+00  2.61107E+00 -4.29919E-01  2.03590E+00  1.67440E-01
  2.26964E+00  9.40478E-01  1.15642E+00  7.08222E-01  8.50214E-01  1.85216E-01  6.86561E-01 -4.74517E-01
  1.55823E+00 -1.28062E+00  2.41922E+00 -1.20107E+00  3.41750E+00 -1.44441E+00  3.99207E+00 -8.81465E-01
  4.98390E+00 -6.36094E-02  5.59501E+00  2.08608E+00  6.03490E+00  2.77632E+00  5.20064E+00  3.88549E+00
  3.74938E+00  6.07340E+00  3.73354E+00  6.21640E+00  2.12195E+00  6.92882E+00  8.04714E-01  7.01317E+00
 -8.86702E-01  7.17107E+00 -2.39395E+00  7.24984E+00 -3.18545E+00  7.40862E+00 -5.49933E+00  6.04326E+00
 -5.83979E+00  4.52259E+00 -6.90725E+00  3.08399E+00 -8.20980E+00  1.86819E+00 -7.39972E+00 -1.52276E-01
 -6.47154E+00 -1.96981E+00 -6.46397E+00 -4.28219E+00 -3.86017E+00 -5.13655E+00 -2.30602E+00 -5.42258E+00
 -4.19054E-01 -5.45143E+00  1.71169E-01 -4.35088E+00  1.32241E+00 -3.37863E+00  2.03136E+00 -2.67431E+00
  2.20792E+00 -1.24018E+00  1.57199E+00 -4.23266E-01  1.29776E+00 -1.85182E-01 -1.22519E-01 -3.42438E-01
 -4.84662E-01 -3.65508E-01 -2.87941E-01  8.10064E-02 -8.17781E-01 -1.04862E-01 -1.14322E+00 -8.28464E-02
 -1.37295E+00 -6.39171E-01 -1.25435E+00 -6.48921E-01 -1.28156E+00 -1.21849E+00 -1.64879E+00 -1.22464E+00
 -1.42233E+00 -2.00862E+00 -1.89997E-02 -2.24270E+00  4.91177E-02 -2.05415E+00  1.15609E+00 -2.54325E+00
  1.73434E+00 -2.45866E+00  2.32014E+00 -1.63204E+00  3.07698E+00 -4.81398E-01  1.45755E+00  5.71887E-01
  1.44757E+00  1.49018E+00 -2.03524E-01  2.10497E+00 -1.47216E+00  1.67512E+00 -2.03239E+00  6.42617E-01
 -2.14143E+00 -4.95445E-02 -1.95466E+00 -1.12515E+00 -2.95951E+00 -2.73506E+00 -1.28389E+00 -3.01574E+00
 -1.86198E-02 -2.74100E+00  2.52886E-01 -3.81081E+00  1.30527E+00 -3.73787E+00  2.31117E+00 -2.95333E+00
  2.47741E+00 -3.16667E+00  4.18859E+00 -2.34510E+00  4.24226E+00 -1.76588E+00  4.90853E+00 -6.12652E-01
  4.95798E+00 -1.61418E-02  5.29305E+00  1.55485E+00  4.90040E+00  2.81568E+00  3.31515E+00  4.58582E+00
  2.72630E+00  4.42734E+00  1.17929E+00  6.37944E+00 -1.25884E+00  5.54257E+00 -1.92085E+00  3.88836E+00
 -2.59580E+00  3.93780E+00 -2.84589E+00  2.58754E+00 -3.24485E+00  4.95709E-01 -3.27719E+00 -2.96938E-01
 -2.17677E+00 -4.40682E-01 -1.12610E+00 -1.90511E+00 -1.28751E+00 -1.09347E+00  7.54599E-02 -8.86382E-01
 -4.38767E-02 -5.90649E-01  2.04366E-01 -2.30672E-01  5.91143E-01  4.99908E-01  4.90514E-01  6.14076E-01
  9.69703E-01  1.08462E+00  2.93954E-01  1.51076E+00 -3.38457E-01  1.45700E+00 -1.89527E-01  1.82628E+00
 -2.23135E-01  2.51639E+00 -2.01350E+00  2.10870E+00 -2.54733E+00  2.16970E+00 -2.07990E+00  1.41521E+00
 -3.21178E+00  2.07641E-01 -2.47042E+00 -8.03415E-01 -2.38605E+00 -1.43573E+00 -1.51948E+00 -2.25345E+00
 -4.51782E-03 -2.38951E+00  1.45493E+00 -2.42871E+00  1.51776E+00 -1.71660E+00  2.27443E+00  1.18771E-01
  1.12047E+00  6.77540E-01  5.82658E-01  1.65996E+00  3.46140E-01  1.52541E+00 -5.84772E-01  1.78097E+00
 -1.27869E+00  2.47455E+00 -1.76349E+00  1.45115E+00 -1.97978E+00  9.59604E-01 -2.67864E+00  4.48953E-01
