 $SEQPAR
 SEQ='MEGA'
 $END

 $NMID ID='subj01c1.RAW', FMTDAT='(8E13.5)'
 TRAMP=1.0000 , VOLUME=1.0000  $END
  2.71124E+01  2.52438E-01  2.53213E+01  5.91807E+00  2.28264E+01  1.14391E+01  1.84633E+01  1.53199E+01
  1.32143E+01  1.89669E+01  9.48366E+00  1.97046E+01  4.02670E+00  1.94921E+01  6.05968E-01  1.78821E+01
 -2.55759E+00  1.66363E+01 -5.37432E+00  1.38689E+01 -7.94825E+00  1.17310E+01 -8.50649E+00  8.14435E+00
 -7.82660E+00  6.27472E+00 -8.33592E+00  4.20492E+00 -6.96938E+00  1.78032E+00 -5.33718E+00  3.74209E-02
 -3.24355E+00 -8.17079E-01 -2.08842E+00 -5.29238E-01 -6.23165E-02 -2.57866E-02  1.20511E+00  1.86120E+00
  1.57176E+00  4.00217E+00  4.11278E-01  5.73324E+00 -1.45935E+00  7.05574E+00 -2.74630E+00  7.02651E+00
 -6.49385E+00  7.25624E+00 -8.84978E+00  5.27663E+00 -1.07325E+01  3.25824E+00 -1.08177E+01  5.15538E-01
 -1.09109E+01 -2.64740E+00 -9.61542E+00 -4.88073E+00 -7.23183E+00 -7.67565E+00 -4.47803E+00 -8.36498E+00
 -2.80260E+00 -8.67258E+00 -2.41491E-01 -8.77971E+00  1.50463E+00 -7.56243E+00  3.16782E+00 -6.54663E+00
  4.25867E+00 -4.32178E+00  4.38676E+00 -2.97556E+00  4.74389E+00 -1.82657E-01  4.82463E+00  9.48477E-01
  3.65891E+00  4.12637E+00  2.69927E+00  5.42170E+00 -7.68735E-01  6.01388E+00 -1.55577E+00  5.68307E+00
 -4.87883E+00  5.68458E+00 -7.21157E+00  3.83232E+00 -9.22292E+00  1.07091E+00 -9.76900E+00 -2.05487E+00
 -8.14485E+00 -4.85099E+00 -6.17924E+00 -8.98407E+00 -3.25796E+00 -9.27308E+00 -1.37892E+00 -1.05760E+01
  1.69537E+00 -1.04550E+01  4.37255E+00 -8.72611E+00  5.85773E+00 -7.11124E+00  6.62556E+00 -5.24075E+00
  7.12908E+00 -3.19624E+00  7.92979E+00 -1.55393E+00  7.98371E+00 -9.74250E-02  6.53909E+00  1.28775E+00
  6.09244E+00  2.68901E+00  5.47086E+00  3.41964E+00  4.14337E+00  4.89596E+00  2.40604E+00  5.45070E+00
  4.57853E-01  4.90641E+00 -3.32636E-01  4.66242E+00 -1.54369E+00  3.48541E+00 -2.12055E+00  1.93711E+00
 -1.44663E+00  5.90085E-01 -1.31415E+00  4.65002E-01  9.00567E-02  5.00943E-02  1.08748E+00 -2.66800E-01
  2.56774E+00  1.54661E-01  3.14133E+00  1.50360E+00  1.62675E+00  2.79728E+00  2.33248E+00  4.07964E+00
 -6.39200E-01  5.20013E+00 -1.91528E+00  5.86097E+00 -2.58926E+00  4.51391E+00 -4.36025E+00  3.34070E+00
 -4.87998E+00  2.13319E+00 -5.47102E+00 -5.40779E-01 -5.09384E+00 -1.82181E+00 -4.42248E+00 -2.81121E+00
 -3.66269E+00 -3.53951E+00 -2.70330E+00 -4.24586E+00 -1.06377E+00 -4.87768E+00  2.01009E-01 -5.34496E+00
  1.67846E+00 -5.70492E+00  3.28388E+00 -4.97707E+00  4.76742E+00 -3.93606E+00  6.28932E+00 -2.21237E+00
  7.14634E+00 -1.32489E-01  7.02967E+00  2.66552E+00  6.42464E+00  4.00229E+00  4.88306E+00  6.15867E+00
  2.00585E+00  7.15578E+00 -4.72301E-01  8.82864E+00 -1.98744E+00  7.71275E+00 -5.23154E+00  5.69117E+00
 -6.32960E+00  3.28838E+00 -6.70416E+00  1.51107E+00 -7.16108E+00  4.88846E-02 -5.74077E+00 -1.52827E+00
 -4.07847E+00 -3.25472E+00 -2.88882E+00 -3.14227E+00 -1.84476E+00 -3.37750E+00 -1.14070E-01 -3.84888E+00
  3.39258E-01 -3.43806E+00  9.21262E-01 -2.80533E+00  1.10924E+00 -2.13887E+00  2.09052E+00 -5.95260E-01
  1.63519E+00  4.32612E-02  1.29848E+00  1.15864E+00  2.74172E-02  1.29509E+00  2.31087E-01  2.27982E+00
 -2.29084E+00  2.64394E+00 -2.68075E+00  2.29592E+00 -5.06134E+00  8.75527E-01 -5.98354E+00 -1.17891E+00
 -5.98417E+00 -2.55702E+00 -4.47834E+00 -4.52021E+00 -3.25060E+00 -6.46492E+00 -4.93876E-01 -6.81161E+00
  1.35899E+00 -8.54688E+00  2.97465E+00 -7.24859E+00  4.52946E+00 -6.06655E+00  5.62976E+00 -3.17322E+00
  6.18909E+00 -1.91016E+00  5.84927E+00 -2.82755E-01  5.63556E+00  1.65972E+00  4.41248E+00  3.03145E+00
  3.60251E+00  3.64487E+00  1.51695E+00  3.90091E+00  2.86238E-01  4.28825E+00 -1.13357E+00  4.02227E+00
 -1.41221E+00  3.19272E+00 -2.52199E+00  2.91985E+00 -3.79050E+00  9.10289E-01 -3.98512E+00 -6.42914E-01
 -3.49699E+00 -2.63383E+00 -2.49223E+00 -4.01325E+00 -3.53059E-01 -5.83437E+00  9.90737E-01 -6.21350E+00
  3.47016E+00 -5.39677E+00  5.43601E+00 -4.15325E+00  6.91723E+00 -1.70983E+00  7.83287E+00  5.27036E-01
  7.68068E+00  2.52293E+00  6.62501E+00  5.10229E+00  4.75510E+00  6.96403E+00  2.47422E+00  7.17224E+00
  1.21294E-01  7.84443E+00 -9.11251E-02  8.20720E+00 -3.22825E+00  7.36244E+00 -4.78056E+00  5.37504E+00
 -5.45439E+00  4.50155E+00 -6.33493E+00  2.96586E+00 -6.48771E+00  1.77354E+00 -6.39084E+00 -9.40953E-01
 -6.27225E+00 -2.26662E+00 -5.37582E+00 -3.29597E+00 -4.26172E+00 -4.44304E+00 -2.09953E+00 -4.74371E+00
 -7.59597E-01 -4.95043E+00  1.34875E+00 -5.52202E+00  2.50722E+00 -3.66324E+00  3.34960E+00 -2.23600E+00
  3.41566E+00 -4.47215E-01  2.04389E+00  8.62005E-01  1.11753E+00  1.81184E+00  7.20695E-01  1.88876E+00
 -4.29382E-01  1.11600E+00 -2.10359E+00  1.16556E+00 -2.56158E+00 -8.30242E-02 -2.21752E+00 -1.05322E+00
 -1.93919E+00 -2.01696E+00 -4.60035E-01 -2.06452E+00 -1.30027E-01 -2.75552E+00  6.45203E-01 -2.87955E+00
  1.41695E+00 -2.83981E+00  2.15607E+00 -2.46708E+00  2.68745E+00 -9.31168E-01  3.22768E+00 -1.23558E+00
  3.02029E+00  1.00805E-01  3.39377E+00  1.12807E+00  4.35456E+00  2.23894E+00  2.47724E+00  3.65693E+00
  2.01418E+00  4.44403E+00  4.49764E-01  4.82640E+00 -1.41406E+00  5.29397E+00 -2.67574E+00  4.57908E+00
 -4.41929E+00  3.92431E+00 -4.93006E+00  1.14288E+00 -5.51887E+00  1.49149E-01 -5.14115E+00 -2.13369E+00
 -4.14074E+00 -3.31985E+00 -2.88004E+00 -5.20404E+00 -1.05614E+00 -5.38912E+00  3.74357E-01 -5.62196E+00
  2.45156E+00 -4.91366E+00  2.85207E+00 -4.04795E+00  4.15599E+00 -2.49547E+00  3.78230E+00 -2.17022E+00
  4.76147E+00 -8.74069E-01  4.44844E+00  2.03424E-01  4.83233E+00  1.48805E+00  3.76302E+00  2.61013E+00
  4.11551E+00  3.00126E+00  2.73531E+00  3.35159E+00  1.70559E+00  4.89193E+00  2.71263E-01  5.00449E+00
 -8.90522E-01  3.77009E+00 -1.65871E+00  3.94563E+00 -2.30398E+00  2.17786E+00 -2.03309E+00  1.77423E+00
 -1.55333E+00  7.42119E-01 -4.57422E-01  3.73671E-01 -1.12389E-01  1.39124E-01  4.48304E-01  1.00042E+00
 -1.52872E-01  2.50015E+00 -1.18643E+00  2.73979E+00 -7.58038E-01  3.19596E+00 -1.83678E+00  3.02406E+00
 -2.78617E+00  3.01242E+00 -3.52586E+00  1.62458E+00 -4.51708E+00  1.33792E+00 -3.64956E+00  1.81992E-01
 -4.72589E+00 -1.21220E+00 -4.17065E+00 -1.87593E+00 -3.91888E+00 -2.31084E+00 -2.90075E+00 -3.53917E+00
 -2.63470E+00 -4.22482E+00 -1.50916E+00 -4.66330E+00 -9.30723E-01 -4.61938E+00  4.77402E-01 -5.60623E+00
  2.21223E+00 -4.36285E+00  2.96571E+00 -4.02281E+00  3.97302E+00 -3.44314E+00  4.83803E+00 -1.29399E+00
  4.69219E+00  2.32906E-01  5.01252E+00  1.82039E+00  3.70223E+00  3.07053E+00  2.46674E+00  3.86276E+00
  5.43085E-01  4.51643E+00 -1.47277E+00  3.83013E+00 -2.15683E+00  3.87300E+00 -2.96334E+00  2.39167E+00
 -3.25037E+00  9.44965E-01 -3.93566E+00 -3.86442E-01 -3.44053E+00 -1.24830E+00 -3.36453E+00 -1.73038E+00
 -2.36874E+00 -2.58620E+00 -2.22981E+00 -2.89696E+00 -1.16084E+00 -3.22028E+00  1.45662E-03 -3.31733E+00
 -1.36300E-02 -3.86698E+00  1.29002E+00 -3.57638E+00  1.86293E+00 -3.53184E+00  2.69489E+00 -3.55408E+00
  3.00757E+00 -2.17647E+00  2.94675E+00 -9.25668E-01  3.32853E+00 -2.65042E-01  2.76322E+00  4.07140E-01
  1.50787E+00  7.51078E-01  1.46509E+00  4.61264E-01  7.88223E-01 -5.22214E-01  1.26859E+00 -1.38447E+00
  1.06901E+00 -8.16193E-01  2.03282E+00 -1.48735E+00  2.79992E+00 -1.73089E+00  4.60461E+00 -9.75976E-01
  4.98639E+00  5.03242E-01  5.84288E+00  7.31248E-01  5.29878E+00  2.25316E+00  5.06526E+00  3.60382E+00
  4.30486E+00  4.88872E+00  3.32872E+00  6.25193E+00  2.43305E+00  5.99773E+00  3.09754E-01  6.62292E+00
 -3.87967E-01  6.64534E+00 -2.08618E+00  6.48146E+00 -3.73045E+00  6.17681E+00 -4.71031E+00  4.93925E+00
 -5.93002E+00  4.16079E+00 -6.50599E+00  2.92969E+00 -7.48521E+00  1.72713E+00 -6.55283E+00 -1.57987E-02
 -6.60807E+00 -2.38346E+00 -5.70283E+00 -3.43434E+00 -4.36500E+00 -4.79881E+00 -1.69614E+00 -4.71158E+00
 -1.41714E+00 -4.32489E+00  5.89285E-01 -3.43019E+00  1.04994E+00 -2.86429E+00  2.50339E+00 -2.55170E+00
  2.14117E+00 -1.39346E+00  1.17247E+00  2.57169E-01  1.15396E+00 -2.16417E-01  1.08649E+00  7.19173E-01
 -5.54287E-02 -3.45372E-01 -5.16196E-01  7.32684E-01 -1.46085E+00  7.97219E-01 -1.29721E+00 -2.74853E-01
 -1.92744E+00 -4.31222E-01 -7.13530E-01 -8.22534E-01 -9.51751E-01 -1.02935E+00 -1.45896E+00 -1.50708E+00
 -3.57512E-01 -2.74552E+00 -8.82404E-01 -2.85475E+00  1.64380E-01 -2.51650E+00  1.68066E+00 -2.17005E+00
  2.27158E+00 -1.90833E+00  2.25376E+00 -8.84704E-01  1.70742E+00 -1.94477E-01  1.48406E+00  1.83895E+00
  4.98938E-01  1.64493E+00 -1.87055E-01  1.37825E+00 -1.62684E+00  1.53272E+00 -2.62719E+00  8.24866E-01
 -3.07137E+00  7.43973E-02 -2.24420E+00 -6.22047E-01 -1.94055E+00 -1.84815E+00 -1.18155E+00 -2.53625E+00
  7.84168E-02 -3.92073E+00 -9.41104E-02 -3.53132E+00  1.80699E+00 -3.58688E+00  2.28774E+00 -3.11165E+00
  3.06128E+00 -3.36399E+00  3.67815E+00 -2.58733E+00  3.90485E+00 -1.82130E+00  4.49531E+00 -3.96774E-01
  4.68318E+00 -1.25638E-01  4.41528E+00  1.84187E+00  4.23369E+00  2.95075E+00  3.94308E+00  4.17773E+00
  2.46358E+00  4.54115E+00  1.82066E+00  4.13958E+00 -2.69332E-01  5.64300E+00 -2.03995E+00  4.66251E+00
 -1.97941E+00  3.28353E+00 -3.06919E+00  2.48370E+00 -3.22301E+00  1.59598E+00 -2.49473E+00 -1.80818E-01
 -1.69103E+00 -8.00239E-01 -1.51492E+00 -8.97377E-01 -4.78665E-01 -9.29258E-01 -5.16968E-01 -7.35644E-01
 -6.84074E-04 -4.29078E-01  3.00733E-01  3.60244E-01  7.50075E-01 -4.86581E-01  2.59846E-01  1.08773E+00
  3.61662E-01  6.49287E-01  3.18535E-01  1.01765E+00  8.90111E-01  1.67060E+00 -3.16604E-01  2.13600E+00
 -9.37122E-01  1.67899E+00 -1.27692E+00  1.88850E+00 -1.96549E+00  1.31588E+00 -2.91958E+00  1.49358E+00
 -1.91194E+00 -2.69251E-01 -2.74224E+00 -3.92633E-01 -1.92297E+00 -1.70550E+00 -9.01074E-01 -2.29131E+00
  5.05113E-02 -1.19480E+00  2.09227E-01 -1.47691E+00  1.04654E+00 -1.86466E+00  1.12743E+00 -2.58499E-01
  1.31969E+00  7.31875E-01  1.11090E+00  1.59173E+00  8.71879E-02  1.45313E+00 -1.24744E-01  2.35638E+00
 -7.62526E-01  2.60244E+00 -2.09436E+00  2.37459E+00 -2.16595E+00  1.87471E+00 -3.56703E+00  5.78938E-01
